-319
-320
-317
-314
-310
-306
-302
-293
-285
-274
-266
-256
-247
-242
-238
-239
-239
-241
-243
-246
-246
-248
-247
-247
-244
-245
-245
-245
-249
-255
-258
-261
-267
-269
-271
-271
-274
-276
-278
-279
-282
-284
-286
-290
-294
-297
-300
-303
-308
-310
-309
-310
-310
-310
-310
-311
-313
-317
-318
-322
-323
-326
-327
-331
-332
-333
-333
-335
-334
-340
-339
-342
-339
-339
-335
-327
-317
-310
-299
-291
-281
-274
-267
-260
-257
-256
-258
-260
-262
-267
-272
-276
-280
-280
-283
-283
-283
-286
-289
-294
-299
-307
-317
-323
-331
-336
-340
-339
-337
-333
-327
-322
-316
-311
-307
-304
-303
-297
-295
-291
-289
-286
-283
-282
-278
-275
-271
-270
-272
-276
-286
-300
-316
-329
-337
-336
-319
-285
-234
-162
-69
44
178
324
469
622
769
911
1051
1182
1287
1345
1334
1233
1028
724
345
-66
-465
-810
-1073
-1245
-1335
-1357
-1332
-1280
-1218
-1151
-1087
-1023
-964
-904
-854
-807
-766
-728
-694
-660
-626
-596
-565
-539
-513
-488
-463
-442
-424
-405
-387
-374
-358
-347
-334
-324
-311
-301
-290
-283
-276
-270
-263
-257
-251
-245
-242
-232
-226
-219
-215
-210
-208
-205
-205
-199
-198
-194
-192
-187
-182
-178
-174
-165
-161
-156
-152
-150
-147
-145
-145
-146
-146
-145
-144
-144
-142
-144
-144
-146
-148
-151
-154
-154
-161
-167
-173
-179
-183
-190
-196
-199
-202
-208
-212
-222
-231
-246
-259
-276
-291
-309
-324
-340
-357
-374
-393
-414
-430
-446
-457
-468
-475
-480
-485
-484
-483
-479
-476
-471
-461
-455
-447
-439
-430
-422
-413
-404
-393
-381
-371
-363
-353
-343
-333
-322
-314
-308
-301
-295
-291
-285
-280
-275
-267
-260
-257
-252
-248
-247
-244
-240
-236
-236
-234
-233
-233
-232
-231
-232
-226
-227
-224
-225
-221
-222
-221
-219
-216
-217
-211
-207
-198
-191
-185
-181
-180
-183
-189
-202
-216
-229
-240
-249
-255
-258
-261
-264
-266
-267
-268
-269
-269
-268
-266
-260
-261
-261
-259
-258
-256
-255
-254
-256
-255
-257
-256
-257
-259
-260
-260
-261
-261
-262
-261
-261
-259
-255
-255
-253
-251
-251
-251
-254
-256
-257
-258
-258
-258
-258
-257
-254
-255
-252
-252
-251
-250
-246
-246
-243
-242
-241
-242
-243
-242
-243
-242
-241
-243
-244
-242
-245
-248
-251
-253
-256
-257
-260
-263
-266
-268
-271
-269
-271
-265
-264
-257
-252
-243
-238
-227
-219
-208
-203
-197
-196
-194
-197
-199
-202
-204
-208
-207
-209
-209
-209
-210
-216
-223
-237
-250
-259
-269
-273
-278
-277
-274
-269
-264
-258
-255
-251
-251
-248
-246
-244
-243
-240
-238
-235
-233
-234
-233
-232
-234
-232
-233
-234
-238
-246
-254
-268
-280
-290
-294
-284
-257
-214
-146
-55
57
189
336
480
628
775
922
1072
1224
1359
1463
1507
1467
1326
1077
732
327
-103
-509
-859
-1127
-1309
-1412
-1444
-1422
-1366
-1292
-1218
-1139
-1063
-996
-935
-883
-837
-791
-749
-709
-667
-630
-595
-562
-532
-504
-479
-454
-433
-413
-395
-379
-365
-351
-339
-326
-310
-301
-289
-279
-269
-262
-257
-254
-250
-246
-243
-236
-228
-222
-216
-207
-199
-191
-186
-181
-174
-170
-166
-162
-156
-155
-151
-147
-144
-140
-138
-133
-129
-124
-121
-118
-116
-117
-115
-111
-105
-104
-102
-101
-99
-103
-104
-108
-108
-115
-119
-124
-128
-135
-145
-155
-165
-174
-181
-191
-199
-210
-220
-230
-245
-257
-276
-295
-315
-337
-361
-381
-406
-420
-439
-449
-462
-469
-473
-477
-480
-483
-479
-477
-473
-470
-464
-462
-457
-449
-440
-431
-422
-411
-402
-393
-385
-375
-365
-356
-345
-334
-323
-314
-305
-300
-294
-288
-282
-275
-273
-267
-264
-260
-256
-254
-250
-247
-244
-240
-239
-236
-235
-232
-228
-225
-222
-220
-217
-217
-218
-218
-216
-217
-216
-218
-217
-220
-224
-224
-226
-230
-232
-230
-233
-232
-233
-234
-233
-232
-233
-233
-234
-234
-234
-235
-236
-237
-237
-234
-234
-233
-231
-231
-234
-234
-234
-236
-236
-235
-234
-231
-231
-229
-228
-228
-229
-229
-228
-229
-229
-229
-229
-228
-229
-227
-226
-227
-227
-226
-228
-227
-228
-224
-225
-223
-223
-221
-223
-220
-221
-219
-220
-220
-224
-226
-228
-230
-232
-233
-234
-234
-233
-233
-234
-233
-232
-232
-234
-240
-248
-251
-258
-263
-268
-267
-265
-261
-253
-243
-235
-224
-215
-201
-194
-185
-181
-180
-181
-182
-187
-192
-192
-196
-199
-199
-200
-201
-203
-207
-213
-223
-232
-244
-252
-261
-264
-267
-262
-259
-254
-251
-246
-246
-242
-239
-235
-234
-233
-232
-234
-233
-234
-235
-233
-232
-230
-228
-226
-229
-231
-231
-236
-247
-259
-270
-282
-290
-283
-260
-215
-148
-59
54
180
316
458
600
737
874
1012
1153
1281
1374
1413
1373
1240
1006
684
300
-100
-481
-807
-1058
-1229
-1320
-1349
-1327
-1274
-1208
-1139
-1069
-1004
-942
-885
-835
-786
-742
-700
-662
-622
-589
-558
-527
-502
-475
-452
-430
-407
-387
-369
-354
-337
-323
-311
-301
-292
-285
-277
-270
-263
-257
-250
-241
-234
-229
-223
-216
-210
-204
-200
-195
-191
-187
-185
-180
-177
-175
-171
-168
-162
-157
-154
-151
-145
-141
-136
-133
-129
-124
-121
-117
-113
-113
-110
-110
-108
-106
-103
-104
-102
-102
-104
-108
-112
-116
-121
-129
-131
-135
-139
-144
-152
-156
-165
-173
-184
-194
-207
-219
-233
-251
-266
-285
-307
-326
-346
-365
-386
-403
-420
-434
-447
-457
-464
-469
-473
-476
-477
-478
-475
-474
-468
-461
-450
-441
-430
-420
-413
-406
-395
-390
-379
-370
-360
-350
-341
-329
-320
-309
-298
-290
-281
-277
-271
-268
-263
-258
-254
-251
-248
-246
-242
-240
-237
-235
-233
-230
-229
-226
-228
-226
-226
-224
-222
-216
-215
-213
-211
-209
-215
-215
-218
-218
-221
-222
-224
-226
-229
-230
-230
-232
-235
-236
-238
-239
-240
-242
-245
-243
-240
-239
-237
-237
-237
-238
-241
-241
-238
-238
-237
-237
-237
-238
-237
-237
-236
-236
-239
-238
-240
-242
-242
-241
-239
-237
-234
-232
-233
-233
-234
-238
-241
-242
-243
-242
-241
-240
-240
-238
-238
-237
-238
-238
-238
-237
-234
-233
-231
-232
-231
-233
-231
-231
-231
-229
-230
-230
-229
-230
-231
-235
-235
-238
-238
-239
-240
-240
-244
-248
-250
-253
-258
-264
-265
-263
-263
-258
-251
-242
-237
-228
-219
-210
-202
-194
-186
-183
-178
-180
-181
-184
-186
-189
-192
-195
-200
-205
-208
-210
-218
-223
-233
-241
-250
-261
-267
-270
-268
-266
-262
-256
-251
-249
-245
-244
-242
-240
-235
-234
-231
-232
-232
-231
-232
-232
-229
-229
-227
-227
-226
-231
-233
-244
-254
-265
-277
-283
-278
-260
-225
-173
-95
-2
113
236
364
494
620
740
864
987
1102
1192
1236
1212
1105
904
619
277
-84
-431
-722
-946
-1096
-1178
-1202
-1186
-1145
-1090
-1030
-971
-910
-856
-804
-758
-717
-680
-646
-616
-585
-559
-531
-506
-479
-458
-436
-417
-397
-380
-366
-349
-334
-322
-309
-299
-289
-282
-272
-262
-255
-247
-241
-235
-227
-224
-219
-214
-208
-202
-195
-191
-185
-182
-176
-172
-167
-169
-163
-160
-156
-153
-148
-145
-143
-140
-139
-136
-131
-130
-125
-124
-122
-123
-121
-120
-120
-118
-115
-113
-114
-113
-117
-120
-122
-128
-129
-132
-135
-142
-146
-154
-164
-173
-179
-191
-199
-208
-217
-227
-240
-254
-271
-286
-306
-326
-346
-368
-384
-400
-415
-428
-438
-447
-451
-457
-461
-461
-462
-461
-459
-457
-457
-453
-450
-447
-441
-434
-425
-417
-404
-394
-383
-374
-362
-353
-346
-333
-328
-320
-311
-302
-295
-288
-284
-277
-274
-270
-266
-260
-257
-251
-245
-240
-237
-232
-230
-229
-228
-228
-228
-228
-227
-224
-221
-221
-219
-221
-222
-224
-227
-231
-229
-230
-230
-230
-234
-237
-239
-241
-242
-246
-245
-245
-243
-245
-247
-249
-249
-249
-251
-250
-248
-247
-247
-248
-248
-248
-251
-253
-254
-254
-253
-249
-249
-244
-244
-242
-241
-242
-240
-243
-243
-244
-243
-243
-244
-240
-239
-239
-239
-239
-240
-240
-240
-242
-242
-241
-240
-239
-236
-233
-232
-232
-232
-234
-237
-237
-239
-240
-238
-235
-236
-233
-234
-232
-233
-233
-235
-236
-237
-238
-240
-239
-237
-239
-238
-239
-242
-246
-250
-254
-257
-259
-261
-264
-264
-262
-256
-249
-239
-228
-218
-207
-196
-190
-183
-179
-179
-180
-184
-184
-187
-192
-196
-201
-205
-205
-206
-208
-211
-215
-221
-230
-242
-252
-264
-272
-278
-279
-274
-271
-266
-259
-255
-251
-248
-246
-244
-242
-240
-238
-235
-233
-234
-234
-234
-231
-231
-228
-226
-225
-228
-234
-244
-256
-267
-276
-281
-275
-254
-219
-164
-88
3
116
235
361
487
613
733
858
984
1102
1201
1255
1239
1141
945
661
313
-60
-414
-719
-952
-1108
-1191
-1215
-1198
-1153
-1095
-1032
-972
-912
-855
-804
-759
-718
-684
-649
-618
-587
-557
-528
-502
-474
-451
-428
-409
-391
-374
-357
-344
-333
-322
-310
-300
-289
-278
-267
-257
-250
-240
-236
-233
-225
-221
-213
-206
-197
-191
-183
-180
-174
-171
-167
-162
-156
-153
-149
-147
-142
-140
-137
-133
-130
-127
-127
-124
-124
-123
-120
-118
-115
-114
-115
-116
-115
-114
-113
-110
-108
-104
-105
-107
-112
-116
-123
-130
-136
-141
-148
-155
-163
-170
-179
-186
-198
-205
-218
-228
-242
-255
-271
-287
-304
-321
-340
-357
-376
-393
-408
-423
-434
-441
-449
-454
-459
-462
-465
-466
-471
-470
-471
-468
-462
-454
-444
-432
-421
-410
-401
-392
-387
-379
-371
-360
-350
-339
-330
-318
-308
-300
-290
-286
-280
-275
-273
-269
-266
-263
-259
-253
-246
-244
-238
-236
-236
-235
-236
-237
-234
-233
-231
-231
-226
-226
-225
-226
-224
-227
-227
-231
-230
-235
-236
-240
-242
-243
-243
-241
-240
-236
-234
-233
-236
-236
-237
-238
-243
-245
-249
-252
-257
-259
-261
-261
-265
-262
-259
-257
-252
-247
-246
-243
-240
-241
-243
-244
-248
-248
-251
-252
-253
-254
-255
-258
-255
-253
-250
-248
-244
-238
-240
-238
-238
-239
-240
-238
-237
-234
-235
-235
-240
-240
-240
-240
-241
-238
-232
-232
-229
-228
-231
-231
-233
-235
-236
-241
-243
-244
-245
-247
-249
-251
-253
-254
-257
-254
-257
-259
-262
-261
-262
-260
-256
-250
-243
-234
-225
-212
-205
-197
-189
-187
-186
-187
-194
-202
-207
-214
-217
-223
-224
-223
-223
-226
-227
-228
-233
-243
-254
-262
-273
-281
-283
-282
-276
-271
-268
-262
-260
-258
-257
-258
-257
-256
-258
-258
-257
-255
-254
-252
-249
-244
-240
-234
-233
-233
-235
-240
-249
-259
-267
-268
-260
-236
-200
-144
-70
25
135
260
393
525
658
779
899
1014
1113
1185
1208
1159
1021
793
479
108
-270
-617
-899
-1089
-1195
-1227
-1210
-1158
-1096
-1034
-977
-926
-874
-823
-779
-734
-692
-657
-627
-595
-564
-534
-508
-482
-453
-431
-412
-393
-377
-362
-350
-338
-330
-321
-314
-309
-302
-293
-285
-274
-264
-255
-244
-235
-230
-223
-218
-209
-204
-197
-190
-181
-176
-174
-174
-175
-178
-177
-180
-180
-175
-170
-163
-155
-149
-145
-143
-142
-140
-138
-136
-136
-137
-133
-133
-133
-131
-130
-129
-128
-124
-120
-122
-122
-123
-126
-132
-142
-151
-159
-167
-174
-179
-184
-190
-197
-205
-217
-225
-238
-250
-263
-277
-295
-314
-333
-351
-372
-390
-408
-424
-437
-450
-459
-465
-472
-471
-471
-468
-466
-465
-466
-461
-459
-453
-443
-432
-422
-412
-402
-395
-388
-380
-371
-362
-355
-345
-336
-328
-318
-311
-303
-298
-293
-288
-285
-277
-274
-267
-261
-254
-251
-249
-248
-247
-245
-244
-238
-236
-232
-228
-226
-230
-231
-233
-233
-235
-235
-232
-230
-227
-225
-225
-226
-227
-228
-230
-235
-239
-239
-237
-235
-232
-231
-230
-232
-233
-236
-239
-240
-241
-242
-242
-243
-243
-242
-243
-241
-239
-240
-239
-237
-240
-241
-243
-244
-245
-246
-245
-247
-246
-246
-247
-245
-244
-239
-238
-237
-236
-236
-237
-237
-236
-237
-240
-239
-240
-238
-237
-235
-237
-238
-238
-236
-239
-238
-239
-238
-237
-237
-238
-237
-237
-236
-236
-237
-242
-244
-244
-246
-249
-248
-249
-246
-245
-243
-240
-233
-225
-216
-207
-198
-190
-184
-183
-181
-185
-188
-193
-198
-204
-212
-217
-222
-223
-226
-230
-236
-238
-243
-253
-260
-267
-272
-277
-277
-279
-273
-271
-266
-264
-259
-256
-253
-249
-245
-242
-236
-235
-233
-232
-233
-234
-233
-233
-232
-231
-230
-231
-233
-241
-252
-261
-267
-263
-249
-220
-176
-117
-38
56
169
298
436
574
708
835
958
1073
1174
1243
1258
1201
1050
801
462
72
-323
-677
-957
-1141
-1236
-1258
-1230
-1173
-1111
-1049
-995
-940
-887
-833
-782
-738
-697
-661
-629
-597
-568
-540
-513
-491
-468
-449
-432
-410
-390
-369
-350
-332
-317
-303
-293
-286
-280
-275
-268
-258
-251
-240
-234
-223
-218
-216
-215
-213
-214
-211
-205
-197
-189
-181
-176
-169
-169
-170
-166
-165
-161
-157
-150
-142
-138
-137
-137
-136
-140
-140
-141
-138
-133
-130
-123
-119
-116
-115
-115
-115
-118
-117
-118
-123
-124
-131
-136
-145
-153
-164
-172
-183
-188
-197
-208
-217
-223
-233
-242
-252
-264
-281
-297
-315
-333
-349
-365
-384
-401
-418
-435
-453
-467
-479
-488
-492
-492
-488
-485
-475
-469
-462
-452
-448
-443
-443
-439
-439
-429
-423
-410
-398
-383
-371
-357
-345
-330
-318
-309
-302
-296
-292
-291
-286
-284
-278
-270
-263
-260
-254
-252
-249
-246
-243
-239
-238
-237
-234
-234
-233
-234
-231
-226
-219
-215
-211
-208
-206
-209
-211
-217
-225
-232
-233
-236
-234
-232
-231
-230
-228
-228
-230
-228
-232
-234
-235
-234
-234
-232
-233
-234
-238
-241
-242
-242
-242
-240
-240
-242
-240
-243
-242
-243
-240
-238
-232
-233
-233
-234
-238
-240
-241
-241
-240
-239
-240
-243
-243
-244
-240
-240
-238
-239
-237
-238
-241
-241
-242
-241
-240
-238
-234
-233
-232
-230
-229
-228
-233
-234
-240
-243
-246
-248
-248
-247
-242
-240
-236
-230
-223
-214
-205
-194
-186
-177
-172
-170
-173
-180
-189
-200
-204
-209
-211
-211
-209